Time (s),Mean DBP Fallers (mmHg),SD DBP Fallers (mmHg),Mean DBP Non-Fallers (mmHg),SD DBP Non-Fallers (mmHg)
-1.200000000000000000e+02,5.912448381862488134e+01,7.056728892344223070e+00,6.352219689983633089e+01,1.109529710010286863e+01
-1.199000000000000057e+02,5.909567627811167512e+01,7.048419782725005689e+00,6.348331993818703722e+01,1.111526124809052796e+01
-1.197999999999999972e+02,5.907830683331705046e+01,7.046422366234970092e+00,6.347219281696566640e+01,1.113571799463370482e+01
-1.197000000000000028e+02,5.907338630175093641e+01,7.059370774863112707e+00,6.347576106483112568e+01,1.113294763347938776e+01
-1.195999999999999943e+02,5.905564686699335653e+01,7.072546848931912322e+00,6.351720651534458995e+01,1.112581521978712829e+01
-1.195000000000000000e+02,5.903598901600993543e+01,7.084480806332868141e+00,6.354814913618751859e+01,1.112892879568191340e+01
-1.194000000000000057e+02,5.901222023094364033e+01,7.096329855691290156e+00,6.357702545632203339e+01,1.114605038502897649e+01
-1.192999999999999972e+02,5.899051889194996789e+01,7.098492256439189241e+00,6.362147615601211470e+01,1.117631527288653537e+01
-1.192000000000000028e+02,5.896676216235692891e+01,7.097352951226261197e+00,6.369275811034587775e+01,1.123475506423976711e+01
-1.190999999999999943e+02,5.894672210018159575e+01,7.089917438862188170e+00,6.376594477450294107e+01,1.129010173772889480e+01
-1.190000000000000000e+02,5.893226541482295033e+01,7.071784242174581792e+00,6.383136467900833821e+01,1.135050488844994021e+01
-1.189000000000000057e+02,5.891630207925659590e+01,7.051045163186994813e+00,6.390814362125177439e+01,1.142474273622238279e+01
-1.187999999999999972e+02,5.889771848453045777e+01,7.025884920651161103e+00,6.400192441444488622e+01,1.149463791330316020e+01
-1.187000000000000028e+02,5.888726946730338341e+01,7.003009126678383822e+00,6.407204869384158030e+01,1.154921645245687678e+01
-1.185999999999999943e+02,5.887651284032961740e+01,6.983936989436101861e+00,6.409342112551752280e+01,1.156442186756800972e+01
-1.185000000000000000e+02,5.886437047195293104e+01,6.963104082498768221e+00,6.413105352863487951e+01,1.159213078505340100e+01
-1.184000000000000057e+02,5.885533966699824049e+01,6.958265164532844160e+00,6.414435012527432889e+01,1.158348656605639526e+01
-1.182999999999999972e+02,5.885690498916762436e+01,6.969113495780137946e+00,6.414368478972242826e+01,1.157170892438075605e+01
-1.182000000000000028e+02,5.884043075291668856e+01,6.992769238131566922e+00,6.414333070656691405e+01,1.155263995650291342e+01
-1.180999999999999943e+02,5.881945888069557782e+01,7.016423301602530138e+00,6.421365935295182226e+01,1.155895056176091984e+01
-1.180000000000000000e+02,5.881857938244467476e+01,7.046013489915149641e+00,6.429137601867337537e+01,1.158621466710580172e+01
-1.179000000000000057e+02,5.880968181635683578e+01,7.067640307390977483e+00,6.430360077675821628e+01,1.157111739771829306e+01
-1.177999999999999972e+02,5.879281214561497393e+01,7.088501456011001345e+00,6.427559941562677182e+01,1.153440130307413725e+01
-1.177000000000000028e+02,5.877348990055452305e+01,7.117089451543148648e+00,6.424969642678041737e+01,1.151599303143290953e+01
-1.175999999999999943e+02,5.875719255569713795e+01,7.148224211215977952e+00,6.422054231252693057e+01,1.150527232865693961e+01
-1.175000000000000000e+02,5.873722569109019531e+01,7.175467118833831037e+00,6.412711622685928603e+01,1.144691242299243683e+01
-1.174000000000000057e+02,5.871114106276565536e+01,7.207340253019361320e+00,6.401438611899700959e+01,1.140627655489029380e+01
-1.172999999999999972e+02,5.868052621766386068e+01,7.238121645194047993e+00,6.394321838595841712e+01,1.134621516385971773e+01
-1.172000000000000028e+02,5.865559480038758267e+01,7.271521004737922844e+00,6.388199737508553255e+01,1.130386305434714345e+01
-1.170999999999999943e+02,5.863829361672068785e+01,7.295383501826835371e+00,6.384941662491036141e+01,1.129867193134580283e+01
-1.170000000000000000e+02,5.866264214110364605e+01,7.295780564357746023e+00,6.386982042349669797e+01,1.135570566080761168e+01
-1.169000000000000057e+02,5.869056889422366652e+01,7.302733724922997105e+00,6.392753881481052503e+01,1.144124032030426186e+01
-1.167999999999999972e+02,5.871754019826388316e+01,7.311769580347637465e+00,6.398205294365919116e+01,1.155330376981419249e+01
-1.167000000000000028e+02,5.874186530765657466e+01,7.321561619676970167e+00,6.403462763942049207e+01,1.168466197957998531e+01
-1.165999999999999943e+02,5.876558910708031647e+01,7.326848204096122252e+00,6.407228989563192556e+01,1.181994654317720617e+01
-1.165000000000000000e+02,5.880087503105487201e+01,7.328272665542652220e+00,6.410772811742180011e+01,1.188145653170879434e+01
-1.164000000000000057e+02,5.884852725860505984e+01,7.328012348597441772e+00,6.408156468457204369e+01,1.191284813471828308e+01
-1.162999999999999972e+02,5.889546523162131564e+01,7.315062108400021579e+00,6.400702360867953189e+01,1.192225974610463091e+01
-1.162000000000000028e+02,5.893177052178481290e+01,7.301524406429678038e+00,6.393406023851652975e+01,1.193798929087665073e+01
-1.160999999999999943e+02,5.896261075307994304e+01,7.287794232221845192e+00,6.387951732938497429e+01,1.197571390602235120e+01
-1.160000000000000000e+02,5.897925134578859740e+01,7.269970081095780579e+00,6.390352945849107158e+01,1.193237814077106407e+01
-1.159000000000000057e+02,5.898992037094911467e+01,7.254919691090728762e+00,6.393992747866343507e+01,1.190539262170719148e+01
-1.157999999999999972e+02,5.899519510290850377e+01,7.243015322158806057e+00,6.397989184739253687e+01,1.187294944921990059e+01
-1.157000000000000028e+02,5.899679006137596815e+01,7.230450521576109679e+00,6.404273944221152703e+01,1.183964715986958716e+01
-1.155999999999999943e+02,5.898915911151191693e+01,7.192351424699549689e+00,6.411151744732259772e+01,1.183924160226088773e+01
-1.155000000000000000e+02,5.897756058625672182e+01,7.155088911610276270e+00,6.414670653747587892e+01,1.184320540993542892e+01
-1.154000000000000057e+02,5.896143807376699186e+01,7.122794123337055971e+00,6.413144774725738273e+01,1.180909737246287072e+01
-1.152999999999999972e+02,5.894702213175652616e+01,7.098924778998606300e+00,6.412444359053142762e+01,1.178574723971113514e+01
-1.152000000000000028e+02,5.893352025012384132e+01,7.076086033591350244e+00,6.411376255707473604e+01,1.177436132520786494e+01
-1.150999999999999943e+02,5.891135200387212478e+01,7.054061955052446820e+00,6.410556856967936312e+01,1.177683776608906818e+01
-1.150000000000000000e+02,5.887985729994631612e+01,7.042786333081568984e+00,6.410167780521250336e+01,1.174079025812312516e+01
-1.149000000000000057e+02,5.884154332537003995e+01,7.028388546524509728e+00,6.409723845055079039e+01,1.166646722541404024e+01
-1.147999999999999972e+02,5.880217437961422178e+01,7.020852200804903909e+00,6.413694395968576600e+01,1.160777006676680045e+01
-1.147000000000000028e+02,5.877030144209701490e+01,7.022852540265322574e+00,6.419835231857841507e+01,1.156157961915197951e+01
-1.145999999999999943e+02,5.874333223326305387e+01,7.024079302102735234e+00,6.424925701776435005e+01,1.152648590698229469e+01
-1.145000000000000000e+02,5.871975216332105418e+01,7.019504210635966857e+00,6.429406278974698807e+01,1.150771186856595207e+01
-1.144000000000000057e+02,5.871551633770760503e+01,7.013396459631483282e+00,6.433366724706722550e+01,1.156213628007925465e+01
-1.142999999999999972e+02,5.870634487632057841e+01,7.005740072031890087e+00,6.436220198198324738e+01,1.162290689766327567e+01
-1.142000000000000028e+02,5.870305087340520345e+01,6.999240132166951511e+00,6.439466938712034505e+01,1.169265534794722861e+01
-1.140999999999999943e+02,5.870019325993774117e+01,6.989551959025016359e+00,6.441428130143894748e+01,1.175133168401800177e+01
-1.140000000000000000e+02,5.869446450375593116e+01,6.976801494217400368e+00,6.443317593019658318e+01,1.181489009583652638e+01
-1.139000000000000057e+02,5.869790035774818904e+01,6.967951910304898355e+00,6.439608517484580830e+01,1.178999133166353630e+01
-1.137999999999999972e+02,5.871161633254188672e+01,6.961205724153032293e+00,6.434553916343736546e+01,1.176301233843125793e+01
-1.137000000000000028e+02,5.872140348360490236e+01,6.952270452734614636e+00,6.428814237649980612e+01,1.172616839923632703e+01
-1.135999999999999943e+02,5.871654600406892399e+01,6.929759601448770567e+00,6.422522282695311446e+01,1.165619189368723596e+01
-1.135000000000000000e+02,5.871580300701772615e+01,6.899066189737937727e+00,6.416340900948027581e+01,1.159453816005009763e+01
-1.134000000000000057e+02,5.871416029888200683e+01,6.867885185492672129e+00,6.411905421356480872e+01,1.156234063482076024e+01
-1.132999999999999972e+02,5.872100476270239966e+01,6.834808133045052081e+00,6.409177052763085669e+01,1.158201236230174302e+01
-1.132000000000000028e+02,5.872199319435592457e+01,6.800996003195432849e+00,6.407031254410600241e+01,1.160097017292934396e+01
-1.130999999999999943e+02,5.874205793049728896e+01,6.787009960571541711e+00,6.408986216558227511e+01,1.162739499012389111e+01
-1.130000000000000000e+02,5.876363652813339655e+01,6.772791948540212381e+00,6.410094037665544420e+01,1.166203999196732788e+01
-1.129000000000000057e+02,5.878584155481829754e+01,6.762677939626375867e+00,6.410771782818426345e+01,1.169563297928990941e+01
-1.127999999999999972e+02,5.880523195773893974e+01,6.756065371587959056e+00,6.413564315654856784e+01,1.174115829203709360e+01
-1.127000000000000028e+02,5.882480747548348177e+01,6.752769573308994744e+00,6.415901609251874049e+01,1.176264673369464653e+01
-1.125999999999999943e+02,5.886309581837868166e+01,6.758847196798471124e+00,6.417592152123586402e+01,1.174850344116192069e+01
-1.125000000000000000e+02,5.893825582757813208e+01,6.791987002551929109e+00,6.419967993949002505e+01,1.173242708169298609e+01
-1.124000000000000057e+02,5.900750429194005164e+01,6.834331666705238284e+00,6.425415630812283041e+01,1.172942723615025606e+01
-1.122999999999999972e+02,5.904049114176402924e+01,6.859029262589317000e+00,6.431171353448154093e+01,1.174047473561118338e+01
-1.122000000000000028e+02,5.906227405045851242e+01,6.878875231294779624e+00,6.437187194459743012e+01,1.177137403438013585e+01
-1.120999999999999943e+02,5.906671610725741317e+01,6.899376575897719022e+00,6.446190399300151341e+01,1.182258029718867220e+01
-1.120000000000000000e+02,5.907058473590208081e+01,6.922245147642970053e+00,6.452755579554657572e+01,1.185651054885228106e+01
-1.119000000000000057e+02,5.907174980611685555e+01,6.953259207821038679e+00,6.456113326284837228e+01,1.187107172086035867e+01
-1.117999999999999972e+02,5.907634186514709995e+01,6.991683821941739652e+00,6.458705735460223707e+01,1.188161273326195122e+01
-1.117000000000000028e+02,5.908077430300311761e+01,7.017462377515405691e+00,6.459100838522539334e+01,1.188013303748879856e+01
-1.115999999999999943e+02,5.907211792645745874e+01,7.040883507301113120e+00,6.455921303442892167e+01,1.187152898470615980e+01
-1.115000000000000000e+02,5.906693452367937169e+01,7.067843635798255697e+00,6.452526151799992249e+01,1.190085184659342410e+01
-1.114000000000000057e+02,5.905830464841406524e+01,7.081107207385837654e+00,6.452235718450364743e+01,1.192816197616255458e+01
-1.112999999999999972e+02,5.904696171089304357e+01,7.088391714502706442e+00,6.453246127820544586e+01,1.196465700363106066e+01
-1.112000000000000028e+02,5.903324773601680420e+01,7.094298919913832435e+00,6.450317319193609933e+01,1.193199907107767110e+01
-1.110999999999999943e+02,5.901998180309112030e+01,7.096972505859554303e+00,6.444509358166327218e+01,1.186479654252773841e+01
-1.110000000000000000e+02,5.901687555850956102e+01,7.097403789519307615e+00,6.436134264581951925e+01,1.179625599031228766e+01
-1.109000000000000057e+02,5.901468672973508944e+01,7.101970515863104794e+00,6.425363546536590320e+01,1.171153762086358974e+01
-1.107999999999999972e+02,5.900912437714055159e+01,7.111224193701175089e+00,6.419935811385902014e+01,1.164498327842436609e+01
-1.107000000000000028e+02,5.900000459448617818e+01,7.094099321521691870e+00,6.418105641114055970e+01,1.158312311771108405e+01
-1.105999999999999943e+02,5.898084568491307778e+01,7.067331001333750251e+00,6.416488857647455291e+01,1.152515050449401812e+01
-1.105000000000000000e+02,5.895892170413809197e+01,7.058092901619099635e+00,6.414866033445892413e+01,1.147942581991610034e+01
-1.104000000000000057e+02,5.895273874237294365e+01,7.054587836466914119e+00,6.413464293302449448e+01,1.145035255243852212e+01
-1.102999999999999972e+02,5.893839853776549376e+01,7.045903749149224460e+00,6.411801479495581191e+01,1.144083690605830661e+01
-1.102000000000000028e+02,5.891826136294924510e+01,7.040722875093266886e+00,6.410522728357958044e+01,1.142367695826841434e+01
-1.100999999999999943e+02,5.889995494649759422e+01,7.036600933439314254e+00,6.409690630306803882e+01,1.140506526246203300e+01
-1.100000000000000000e+02,5.889044357724169743e+01,7.031105275658345199e+00,6.407828127738737578e+01,1.140094076729122463e+01
-1.099000000000000057e+02,5.887930128469889723e+01,7.028917666910193596e+00,6.405741936287139993e+01,1.140245524697311552e+01
-1.097999999999999972e+02,5.884113626359688709e+01,7.012972175613906067e+00,6.401368325929546188e+01,1.139369146899233165e+01
-1.097000000000000028e+02,5.880247234554930458e+01,6.992378253068163296e+00,6.395719060800139033e+01,1.138366120535547665e+01
-1.095999999999999943e+02,5.878083890740743556e+01,6.965616071643164098e+00,6.391847917946290636e+01,1.140394437628631152e+01
-1.095000000000000000e+02,5.876528812380880140e+01,6.943877979083110219e+00,6.388219481068937000e+01,1.142204210085852978e+01
-1.094000000000000057e+02,5.874542138179054973e+01,6.917550558546373907e+00,6.385688968817980538e+01,1.143931417319719301e+01
-1.092999999999999972e+02,5.873951001178195241e+01,6.895390388387108160e+00,6.383537594272116422e+01,1.146194240163290701e+01
-1.092000000000000028e+02,5.873831280488199269e+01,6.875695232012597913e+00,6.381658086808615593e+01,1.149090030849307986e+01
-1.090999999999999943e+02,5.876088677122704240e+01,6.870612086675168761e+00,6.382560897281084777e+01,1.152518270089314356e+01
-1.090000000000000000e+02,5.878490700773024003e+01,6.880071953640761961e+00,6.383221589793982531e+01,1.156768504501949657e+01
-1.089000000000000057e+02,5.881324928382803563e+01,6.896284465658563789e+00,6.382141745646411124e+01,1.159434199131624865e+01
-1.087999999999999972e+02,5.886209504113708135e+01,6.924669274672639041e+00,6.380452054871555134e+01,1.160950791209835309e+01
-1.087000000000000028e+02,5.889536370747964611e+01,6.948002541286944833e+00,6.378691029410906310e+01,1.162383399277405438e+01
-1.085999999999999943e+02,5.891997066473378197e+01,6.971999118861380573e+00,6.381661107489642148e+01,1.153861920767134919e+01
-1.085000000000000000e+02,5.894414313713735254e+01,6.998808886550901498e+00,6.382234311482401523e+01,1.146562164296108577e+01
-1.084000000000000057e+02,5.895520936749058194e+01,7.033879748723934178e+00,6.383424632873139615e+01,1.141154772983534471e+01
-1.082999999999999972e+02,5.896049587790079016e+01,7.068243875850697577e+00,6.386516679178780720e+01,1.138565139594659215e+01
-1.082000000000000028e+02,5.898054752771436426e+01,7.094743182163142592e+00,6.390482128472233114e+01,1.137841933027769414e+01
-1.080999999999999943e+02,5.902029401734952074e+01,7.102842576730531654e+00,6.393955671193468504e+01,1.138222684642381743e+01
-1.080000000000000000e+02,5.904662951660871784e+01,7.096762968755567336e+00,6.392987361449292649e+01,1.138500551914981962e+01
-1.079000000000000057e+02,5.903800367584236142e+01,7.079768064636324354e+00,6.392323461942285689e+01,1.138421638004929370e+01
-1.077999999999999972e+02,5.901203888747269133e+01,7.054733721978059258e+00,6.390796430402888717e+01,1.139218934935422567e+01
-1.077000000000000028e+02,5.899054830356278245e+01,7.032003131231321369e+00,6.388316545647932543e+01,1.140133739036774330e+01
-1.075999999999999943e+02,5.897530700683851990e+01,7.014309783295066048e+00,6.387297689260081768e+01,1.140777858542631407e+01
-1.075000000000000000e+02,5.895690740739182445e+01,6.999065328506197226e+00,6.386960199988488540e+01,1.141647437709358570e+01
-1.074000000000000057e+02,5.896129802337716086e+01,6.969538216387229923e+00,6.388077523694966686e+01,1.145757256572311000e+01
-1.072999999999999972e+02,5.895675887684450345e+01,6.951343978388520028e+00,6.391076708410162155e+01,1.152226385220656191e+01
-1.072000000000000028e+02,5.893964407637023584e+01,6.937483543045403600e+00,6.390914673403835877e+01,1.153789051127625065e+01
-1.070999999999999943e+02,5.892185890315164443e+01,6.914803340371182827e+00,6.391003705438637894e+01,1.156803275878974979e+01
-1.070000000000000000e+02,5.891688093689798222e+01,6.895681857515725710e+00,6.390486775180092138e+01,1.160437896822191917e+01
-1.069000000000000057e+02,5.893996158292264198e+01,6.890524822168566210e+00,6.390558174336761255e+01,1.164031708166029233e+01
-1.067999999999999972e+02,5.897122100742490147e+01,6.896874841226638075e+00,6.388161424604484040e+01,1.164696162751292086e+01
-1.067000000000000028e+02,5.898029005803141445e+01,6.894475020761127837e+00,6.385241120168111451e+01,1.165649252608221786e+01
-1.065999999999999943e+02,5.899091493946604459e+01,6.891236077386210468e+00,6.382494515191090301e+01,1.168763183746303191e+01
-1.065000000000000000e+02,5.899857273500029464e+01,6.892144900398418095e+00,6.379678819616650998e+01,1.171515025241954433e+01
-1.064000000000000057e+02,5.900851451403361381e+01,6.899221373997558970e+00,6.376371673813840601e+01,1.173856164026582327e+01
-1.062999999999999972e+02,5.904087833295917420e+01,6.912117061274458685e+00,6.375930385861197180e+01,1.171190707310015000e+01
-1.062000000000000028e+02,5.907215080960862963e+01,6.937541218582836677e+00,6.378621232468738356e+01,1.169442780032441220e+01
-1.060999999999999943e+02,5.910390514377515814e+01,6.958310832973233495e+00,6.380070863699710060e+01,1.166341665270838313e+01
-1.060000000000000000e+02,5.911841869672883121e+01,6.973742053307033117e+00,6.379613870529147590e+01,1.162211979733970502e+01
-1.059000000000000057e+02,5.911305492807500173e+01,6.982902141046304578e+00,6.380265913355167839e+01,1.158999028825105526e+01
-1.057999999999999972e+02,5.910867328600701853e+01,6.995436958095236690e+00,6.381291985499862562e+01,1.155978990780524285e+01
-1.057000000000000028e+02,5.911168935947117831e+01,7.012199596635958265e+00,6.377229659241089621e+01,1.151612078180845877e+01
-1.055999999999999943e+02,5.911775932517736720e+01,7.038409649118337441e+00,6.370493720523432302e+01,1.146572285514629463e+01
-1.055000000000000000e+02,5.912264804861553102e+01,7.068600387569659027e+00,6.364778866469774954e+01,1.143267365170950889e+01
-1.054000000000000057e+02,5.912102559645617816e+01,7.095760173194052278e+00,6.360187101655105835e+01,1.141814705024174614e+01
-1.052999999999999972e+02,5.912393247537426078e+01,7.128647775460724034e+00,6.356246519164805164e+01,1.142020031716125494e+01
-1.052000000000000028e+02,5.912143739218745964e+01,7.154441806413958105e+00,6.352766315914446693e+01,1.142989943890458093e+01
-1.050999999999999943e+02,5.914157446632905391e+01,7.176361906736193674e+00,6.349227480315458649e+01,1.145581344327238504e+01
-1.050000000000000000e+02,5.917792172263780515e+01,7.193095055030073404e+00,6.344485548748627224e+01,1.149779421656345946e+01
-1.049000000000000057e+02,5.921173676188062274e+01,7.213818246755876018e+00,6.340350208318262304e+01,1.157659340886602450e+01
-1.047999999999999972e+02,5.924005736368238928e+01,7.230301286748780143e+00,6.336695818815263692e+01,1.167322829913540083e+01
-1.047000000000000028e+02,5.927751037873530038e+01,7.232796282444073022e+00,6.334087737320484024e+01,1.176081836458403274e+01
-1.045999999999999943e+02,5.931302617448574210e+01,7.235980728156755859e+00,6.328798084617588415e+01,1.180882499240879646e+01
-1.045000000000000000e+02,5.934327080526568921e+01,7.249594147515313836e+00,6.331091516212351422e+01,1.176981325069036011e+01
-1.044000000000000057e+02,5.937064356940810939e+01,7.265287434088191887e+00,6.333391010295625989e+01,1.168313306500186499e+01
