Time (s),Mean HR Fallers (bpm),SD HR Fallers (bpm),Mean HR Non-Fallers (bpm),SD HR Non-Fallers (bpm)
-1.200000000000000000e+02,6.483649625527993976e+01,1.044870450427709230e+01,6.700124083068406833e+01,1.154500627708059213e+01
-1.199000000000000057e+02,6.483495179914123696e+01,1.044913148625233745e+01,6.699824172421308788e+01,1.153752459768315397e+01
-1.197999999999999972e+02,6.483422049329028880e+01,1.045030041044060098e+01,6.699609934707416414e+01,1.153248552239215741e+01
-1.197000000000000028e+02,6.483427944879522897e+01,1.045214577933360189e+01,6.699493049365140962e+01,1.152980819963512005e+01
-1.195999999999999943e+02,6.483508945366300225e+01,1.045457820384955205e+01,6.699484275604513073e+01,1.152940881633931092e+01
-1.195000000000000000e+02,6.483659875952228901e+01,1.045750470697987389e+01,6.699592426503865283e+01,1.153121436655441379e+01
-1.194000000000000057e+02,6.483874001078558535e+01,1.046084703083670320e+01,6.699823995492242545e+01,1.153517483201704863e+01
-1.192999999999999972e+02,6.484142175573791178e+01,1.046455483409725318e+01,6.700182306872309823e+01,1.154122085850117507e+01
-1.192000000000000028e+02,6.484453976551225196e+01,1.046859307115350113e+01,6.700659271488413538e+01,1.154916289347681690e+01
-1.190999999999999943e+02,6.484800410525737391e+01,1.047293078665254207e+01,6.701231985997942786e+01,1.155867210098777420e+01
-1.190000000000000000e+02,6.485176659748940153e+01,1.047754524709913149e+01,6.701873028919455066e+01,1.156937091589509059e+01
-1.189000000000000057e+02,6.485582026043653059e+01,1.048242171183032134e+01,6.702556001000219510e+01,1.158087691133370889e+01
-1.187999999999999972e+02,6.486017402687772915e+01,1.048754938759474520e+01,6.703256559961737082e+01,1.159285368520946768e+01
-1.187000000000000028e+02,6.486484197767423154e+01,1.049291819635179479e+01,6.703953333929079861e+01,1.160511000509256796e+01
-1.185999999999999943e+02,6.486984921414826033e+01,1.049851825722440246e+01,6.704628349106435792e+01,1.161760482552418772e+01
-1.185000000000000000e+02,6.487523305210791591e+01,1.050434120408071514e+01,6.705271641098315172e+01,1.163037501486775405e+01
-1.184000000000000057e+02,6.488103427183230565e+01,1.051037739360423018e+01,6.705882085918419477e+01,1.164348041440896608e+01
-1.182999999999999972e+02,6.488728382790178273e+01,1.051661651362252670e+01,6.706473639574676326e+01,1.165718737846212072e+01
-1.182000000000000028e+02,6.489398741995817943e+01,1.052306253292097971e+01,6.707079410126225127e+01,1.167210015759671116e+01
-1.180999999999999943e+02,6.490111756781332986e+01,1.052974014674168934e+01,6.707736958943220884e+01,1.168889790888147751e+01
-1.180000000000000000e+02,6.490861695227259531e+01,1.053667875376869212e+01,6.708472487322681843e+01,1.170805881862697895e+01
-1.179000000000000057e+02,6.491640967525646033e+01,1.054390174431896021e+01,6.709295038832874525e+01,1.172976910759067160e+01
-1.177999999999999972e+02,6.492441456105700581e+01,1.055143001177776618e+01,6.710203068125021275e+01,1.175404155421452579e+01
-1.177000000000000028e+02,6.493254350486748194e+01,1.055928004894160743e+01,6.711191439414592708e+01,1.178084567367788971e+01
-1.175999999999999943e+02,6.494068441732235897e+01,1.056744228758450355e+01,6.712260756284698004e+01,1.181017043018515267e+01
-1.175000000000000000e+02,6.494869895548752936e+01,1.057586812395884124e+01,6.713419960394803354e+01,1.184204650557266447e+01
-1.174000000000000057e+02,6.495644068715550645e+01,1.058448981097950181e+01,6.714671429196378938e+01,1.187646651277381338e+01
-1.172999999999999972e+02,6.496376335113460243e+01,1.059323629845902914e+01,6.716010343429188367e+01,1.191337707225451581e+01
-1.172000000000000028e+02,6.497052979512589843e+01,1.060204250757761635e+01,6.717428257390781710e+01,1.195264954209593355e+01
-1.170999999999999943e+02,6.497664586529639053e+01,1.061084266480715854e+01,6.718906807500101763e+01,1.199397155263016757e+01
-1.170000000000000000e+02,6.498207576783282491e+01,1.061954192439110045e+01,6.720420741699589939e+01,1.203686816389118697e+01
-1.169000000000000057e+02,6.498681835078711799e+01,1.062802927296687905e+01,6.721947111294512922e+01,1.208081334991326727e+01
-1.167999999999999972e+02,6.499088607801533612e+01,1.063620660550011010e+01,6.723466777996138433e+01,1.212527137835515312e+01
-1.167000000000000028e+02,6.499429677470801892e+01,1.064398355769175097e+01,6.724960054285799060e+01,1.216969460867674968e+01
-1.165999999999999943e+02,6.499706974736808718e+01,1.065126855810425788e+01,6.726408672767765040e+01,1.221363131971143190e+01
-1.165000000000000000e+02,6.499922752361439393e+01,1.065797038016356169e+01,6.727800939368491129e+01,1.225682052176491688e+01
-1.164000000000000057e+02,6.500079571102942566e+01,1.066399848281797524e+01,6.729130440898136101e+01,1.229907353615146981e+01
-1.162999999999999972e+02,6.500179684837544869e+01,1.066926755622709599e+01,6.730396739233998460e+01,1.234025787390914886e+01
-1.162000000000000028e+02,6.500229097786726129e+01,1.067375603960134001e+01,6.731613136087830185e+01,1.238052621762989780e+01
-1.160999999999999943e+02,6.500242145689772144e+01,1.067755187678648987e+01,6.732807330702345894e+01,1.242038155589926696e+01
-1.160000000000000000e+02,6.500236922446876520e+01,1.068079907371604165e+01,6.734011593822410191e+01,1.246046866760788951e+01
-1.159000000000000057e+02,6.500230571652397771e+01,1.068365161238778960e+01,6.735250666286678722e+01,1.250128411349242086e+01
-1.157999999999999972e+02,6.500239733798254349e+01,1.068626867594431573e+01,6.736536315168014255e+01,1.254301966623491538e+01
-1.157000000000000028e+02,6.500281040789079157e+01,1.068880935259852905e+01,6.737873211522713746e+01,1.258570411178840587e+01
-1.155999999999999943e+02,6.500367107555041457e+01,1.069138752646533064e+01,6.739257932390127337e+01,1.262921355552490610e+01
-1.155000000000000000e+02,6.500500622656720395e+01,1.069398627901463250e+01,6.740673732788710026e+01,1.267315393055269013e+01
-1.154000000000000057e+02,6.500676925793014505e+01,1.069646403958317649e+01,6.742095649707196969e+01,1.271701243770057133e+01
-1.152999999999999972e+02,6.500888487743165456e+01,1.069864546581056253e+01,6.743495032323622240e+01,1.276028943266150151e+01
-1.152000000000000028e+02,6.501124080888705237e+01,1.070036442996087089e+01,6.744842920968170574e+01,1.280248985723204314e+01
-1.150999999999999943e+02,6.501369745424780433e+01,1.070145946588077734e+01,6.746113392316382829e+01,1.284311496405198305e+01
-1.150000000000000000e+02,6.501611070789394375e+01,1.070176938095017327e+01,6.747283109588838101e+01,1.288166061583312505e+01
-1.149000000000000057e+02,6.501833328392976341e+01,1.070115246832989975e+01,6.748330402810212547e+01,1.291762845776643154e+01
-1.147999999999999972e+02,6.502022223402491363e+01,1.069954499842314455e+01,6.749238375124248535e+01,1.295061180089076025e+01
-1.147000000000000028e+02,6.502170467372229723e+01,1.069700375606097076e+01,6.749999336752452450e+01,1.298039311921830041e+01
-1.145999999999999943e+02,6.502280724500766951e+01,1.069366469186444490e+01,6.750611876210345486e+01,1.300688433428255664e+01
-1.145000000000000000e+02,6.502357864651888519e+01,1.068967305060368567e+01,6.751075531261164997e+01,1.303002726874971096e+01
-1.144000000000000057e+02,6.502405249074135440e+01,1.068516604012158133e+01,6.751391038098768149e+01,1.304980302217335186e+01
-1.142999999999999972e+02,6.502428642159036087e+01,1.068027522550406694e+01,6.751562298344420299e+01,1.306627079701373795e+01
-1.142000000000000028e+02,6.502439246782816440e+01,1.067513324287967968e+01,6.751604732410383747e+01,1.307971589620234276e+01
-1.140999999999999943e+02,6.502452775663316231e+01,1.066990682483879382e+01,6.751552923283870200e+01,1.309077810622586924e+01
-1.140000000000000000e+02,6.502486599171625414e+01,1.066480988714292089e+01,6.751450837944786088e+01,1.310027355039645691e+01
-1.139000000000000057e+02,6.502549543813485400e+01,1.066004746631411670e+01,6.751342163602581081e+01,1.310902422790058175e+01
-1.137999999999999972e+02,6.502634405109024840e+01,1.065577122077765182e+01,6.751268639688650808e+01,1.311782079772290999e+01
-1.137000000000000028e+02,6.502729649765737463e+01,1.065210188943054348e+01,6.751260779638585063e+01,1.312721740853362817e+01
-1.135999999999999943e+02,6.502830196122428674e+01,1.064913063905557777e+01,6.751332605035946699e+01,1.313738505648400334e+01
-1.135000000000000000e+02,6.502934095867200881e+01,1.064688439090915928e+01,6.751491549398974712e+01,1.314827856874508072e+01
-1.134000000000000057e+02,6.503034208175377273e+01,1.064529167243309971e+01,6.751745321452233384e+01,1.315979198464650324e+01
-1.132999999999999972e+02,6.503114426537359805e+01,1.064419396418693076e+01,6.752100634286345837e+01,1.317176942387015437e+01
-1.132000000000000028e+02,6.503153836336082350e+01,1.064340538984124862e+01,6.752557410061908172e+01,1.318390849081616167e+01
-1.130999999999999943e+02,6.503130790147424989e+01,1.064274211594194419e+01,6.753105265116211342e+01,1.319569369563992645e+01
-1.130000000000000000e+02,6.503031071634941895e+01,1.064205599672101243e+01,6.753729737285898693e+01,1.320652855209665866e+01
-1.129000000000000057e+02,6.502856711660537314e+01,1.064127242939978579e+01,6.754418096536977600e+01,1.321596651827752744e+01
-1.127999999999999972e+02,6.502621710988977100e+01,1.064035099109879390e+01,6.755159943306315995e+01,1.322383569055101837e+01
-1.127000000000000028e+02,6.502347192051466607e+01,1.063927240381521955e+01,6.755944628305141464e+01,1.323010715935613923e+01
-1.125999999999999943e+02,6.502059421014745055e+01,1.063808474922012515e+01,6.756760932657931562e+01,1.323479648545418996e+01
-1.125000000000000000e+02,6.501784515845943702e+01,1.063689312199504933e+01,6.757599940129557581e+01,1.323800557923360621e+01
-1.124000000000000057e+02,6.501548083181718596e+01,1.063581985497573967e+01,6.758455291575937451e+01,1.323989675258344967e+01
-1.122999999999999972e+02,6.501377106812719830e+01,1.063498210907866692e+01,6.759321035518667031e+01,1.324063421375094762e+01
-1.122000000000000028e+02,6.501292704188503535e+01,1.063445901343308364e+01,6.760188730590745365e+01,1.324035666458921767e+01
-1.120999999999999943e+02,6.501303554845232213e+01,1.063426617145072939e+01,6.761046604064370058e+01,1.323918100756404037e+01
-1.120000000000000000e+02,6.501410162634988410e+01,1.063434700793464138e+01,6.761874281096946504e+01,1.323700899977002976e+01
-1.119000000000000057e+02,6.501608318854535185e+01,1.063457657020938463e+01,6.762643483816256662e+01,1.323341909532110883e+01
-1.117999999999999972e+02,6.501889586275426325e+01,1.063479862222508920e+01,6.763334101292664968e+01,1.322795535216378582e+01
-1.117000000000000028e+02,6.502242123169595800e+01,1.063486246121487788e+01,6.763948484605687383e+01,1.322051870255009121e+01
-1.115999999999999943e+02,6.502650689647336435e+01,1.063464604778061151e+01,6.764507374352393754e+01,1.321143798661297453e+01
-1.115000000000000000e+02,6.503097714276464103e+01,1.063405776964484239e+01,6.765018444655191843e+01,1.320087052833424046e+01
-1.114000000000000057e+02,6.503564428205199022e+01,1.063302576652851350e+01,6.765467127684064508e+01,1.318853329188980972e+01
-1.112999999999999972e+02,6.504034220091595841e+01,1.063154696054354886e+01,6.765839980960429045e+01,1.317409180209273245e+01
-1.112000000000000028e+02,6.504497234770714442e+01,1.062972812252416333e+01,6.766128617009653112e+01,1.315729146503064584e+01
-1.110999999999999943e+02,6.504948707463333335e+01,1.062773225982877179e+01,6.766323699213481291e+01,1.313789768189855778e+01
-1.110000000000000000e+02,6.505385444080364721e+01,1.062572707678396888e+01,6.766414729349412482e+01,1.311568548751627183e+01
-1.109000000000000057e+02,6.505805872096608766e+01,1.062387779797927934e+01,6.766387594410008433e+01,1.309042737474747220e+01
-1.107999999999999972e+02,6.506210166863114353e+01,1.062234570927210697e+01,6.766219208013498587e+01,1.306186113323763465e+01
-1.107000000000000028e+02,6.506598941078827636e+01,1.062128627377301626e+01,6.765900389233307521e+01,1.303026666665791566e+01
-1.105999999999999943e+02,6.506970068004403629e+01,1.062080516740519975e+01,6.765451129158194021e+01,1.299668748626970327e+01
-1.105000000000000000e+02,6.507316817059357561e+01,1.062091268358409124e+01,6.764887436438894497e+01,1.296194258775942387e+01
-1.104000000000000057e+02,6.507631765895422404e+01,1.062155422373166402e+01,6.764214276509022739e+01,1.292642038910791769e+01
-1.102999999999999972e+02,6.507910873714378397e+01,1.062264470060572386e+01,6.763439044991450544e+01,1.289049475340772766e+01
-1.102000000000000028e+02,6.508153517209886729e+01,1.062406505626813313e+01,6.762569772407942992e+01,1.285453928686408176e+01
-1.100999999999999943e+02,6.508361311959822615e+01,1.062566891665941249e+01,6.761619753645830144e+01,1.281899351706911006e+01
-1.100000000000000000e+02,6.508536027892014886e+01,1.062730247167701769e+01,6.760611024976458339e+01,1.278440658827264187e+01
-1.099000000000000057e+02,6.508678598640319990e+01,1.062882491444670485e+01,6.759568527437417629e+01,1.275134084063818740e+01
-1.097999999999999972e+02,6.508790176317718590e+01,1.063011761669380917e+01,6.758516823631444481e+01,1.272030718034851304e+01
-1.097000000000000028e+02,6.508872353893744389e+01,1.063107294350314191e+01,6.757475261320364268e+01,1.269166476717485637e+01
-1.095999999999999943e+02,6.508926441682604036e+01,1.063157955276078326e+01,6.756449571894867745e+01,1.266550091018007684e+01
-1.095000000000000000e+02,6.508954108234856051e+01,1.063151717026602583e+01,6.755434022690246820e+01,1.264171123934883134e+01
-1.094000000000000057e+02,6.508958130785397600e+01,1.063076693623496460e+01,6.754413770907454762e+01,1.262000791420154400e+01
-1.092999999999999972e+02,6.508939599154059863e+01,1.062924405209307999e+01,6.753365740336293754e+01,1.259988708505208166e+01
-1.092000000000000028e+02,6.508897495139963496e+01,1.062694143831512328e+01,6.752266332283330996e+01,1.258079983216548570e+01
-1.090999999999999943e+02,6.508832454458402594e+01,1.062393069141094237e+01,6.751094974874824572e+01,1.256225661782423764e+01
-1.090000000000000000e+02,6.508746006586973465e+01,1.062031278477224383e+01,6.749840807008361310e+01,1.254392581180761290e+01
-1.089000000000000057e+02,6.508638295664842133e+01,1.061619021778806093e+01,6.748510241042558278e+01,1.252572360119802042e+01
-1.087999999999999972e+02,6.508508770128131005e+01,1.061166580273731697e+01,6.747117550168006517e+01,1.250765629373553267e+01
-1.087000000000000028e+02,6.508356720524787420e+01,1.060684090291394988e+01,6.745674740812421533e+01,1.248966303014922374e+01
-1.085999999999999943e+02,6.508181517210094569e+01,1.060181241399449803e+01,6.744191973432482712e+01,1.247159981913474169e+01
-1.085000000000000000e+02,6.507982198027846721e+01,1.059665480770940782e+01,6.742679077836923796e+01,1.245326282455755162e+01
-1.084000000000000057e+02,6.507756433035378052e+01,1.059140791803039683e+01,6.741144084570419182e+01,1.243447218675768795e+01
-1.082999999999999972e+02,6.507501044876849505e+01,1.058609564448666696e+01,6.739593231247822303e+01,1.241517018116600113e+01
-1.082000000000000028e+02,6.507213076365694349e+01,1.058073862095546502e+01,6.738033878879717520e+01,1.239538235589804671e+01
-1.080999999999999943e+02,6.506891373009241875e+01,1.057534543366515045e+01,6.736475772186615529e+01,1.237514634265335545e+01
-1.080000000000000000e+02,6.506537411110808478e+01,1.056992172280647146e+01,6.734928696575425988e+01,1.235449379006682946e+01
-1.079000000000000057e+02,6.506154043779498863e+01,1.056449479432074767e+01,6.733398362688716077e+01,1.233343270510926004e+01
-1.077999999999999972e+02,6.505746015581893005e+01,1.055912368124698197e+01,6.731885947510164669e+01,1.231195671093539268e+01
-1.077000000000000028e+02,6.505319811048309475e+01,1.055389727351099260e+01,6.730391283754001108e+01,1.229006623822610855e+01
-1.075999999999999943e+02,6.504880413707293485e+01,1.054892194942724259e+01,6.728914719955334078e+01,1.226777491383760399e+01
-1.075000000000000000e+02,6.504430309628529017e+01,1.054430966049228147e+01,6.727456275884807724e+01,1.224509669573988013e+01
-1.074000000000000057e+02,6.503971146750799903e+01,1.054017451738983446e+01,6.726013074087714472e+01,1.222202775781855166e+01
-1.072999999999999972e+02,6.503504564068541072e+01,1.053663110824115456e+01,6.724579170202564171e+01,1.219858355277223261e+01
-1.072000000000000028e+02,6.503031781506010134e+01,1.053379438610049412e+01,6.723145149448150448e+01,1.217476434585630685e+01
-1.070999999999999943e+02,6.502552406117351325e+01,1.053177382987886546e+01,6.721696387058621269e+01,1.215043178627488274e+01
-1.070000000000000000e+02,6.502064374276866943e+01,1.053064450804318319e+01,6.720219675451309627e+01,1.212538417322544504e+01
-1.069000000000000057e+02,6.501566139153212021e+01,1.053041094070425743e+01,6.718711119486029304e+01,1.209948148090662556e+01
-1.067999999999999972e+02,6.501058714683507844e+01,1.053100735615105066e+01,6.717174666487127865e+01,1.207261494570296279e+01
-1.067000000000000028e+02,6.500546668446921217e+01,1.053232718266689716e+01,6.715616768360830235e+01,1.204467540712784590e+01
-1.065999999999999943e+02,6.500038107634760820e+01,1.053424863138080347e+01,6.714050291362141820e+01,1.201574308623835208e+01
-1.065000000000000000e+02,6.499543138766127015e+01,1.053664551924624249e+01,6.712502726893154659e+01,1.198627430768820545e+01
-1.064000000000000057e+02,6.499071734908942233e+01,1.053937919591774452e+01,6.711010479848721388e+01,1.195695653284945692e+01
-1.062999999999999972e+02,6.498632751722455225e+01,1.054228942714929040e+01,6.709609299377085279e+01,1.192853966887905059e+01
-1.062000000000000028e+02,6.498234494910232684e+01,1.054520579100181443e+01,6.708328175942514804e+01,1.190165091155314592e+01
-1.060999999999999943e+02,6.497885564754376730e+01,1.054796004370395401e+01,6.707185957960696499e+01,1.187665385720644906e+01
-1.060000000000000000e+02,6.497595264283414451e+01,1.055038742613034231e+01,6.706196532076720018e+01,1.185379484705538466e+01
-1.059000000000000057e+02,6.497371367619366822e+01,1.055235104064870555e+01,6.705372152721476198e+01,1.183333304638303751e+01
-1.057999999999999972e+02,6.497216485715544820e+01,1.055377717028574835e+01,6.704720207260167797e+01,1.181550781476142120e+01
-1.057000000000000028e+02,6.497128052292119094e+01,1.055465678435624532e+01,6.704238800003970766e+01,1.180043599528718801e+01
-1.055999999999999943e+02,6.497100913196399574e+01,1.055502637728438664e+01,6.703913505861399358e+01,1.178799712805022182e+01
-1.055000000000000000e+02,6.497129356671352696e+01,1.055494113996853578e+01,6.703717760944923043e+01,1.177778937575814489e+01
-1.054000000000000057e+02,6.497207784336514180e+01,1.055445697146649309e+01,6.703612531868232338e+01,1.176915797315449730e+01
-1.052999999999999972e+02,6.497330464977594033e+01,1.055362865457018096e+01,6.703552697375359060e+01,1.176134386473632887e+01
-1.052000000000000028e+02,6.497491362394337955e+01,1.055250931826257244e+01,6.703499858348132534e+01,1.175367148470582102e+01
-1.050999999999999943e+02,6.497684327320344266e+01,1.055115147458305991e+01,6.703420224732074928e+01,1.174555414004592357e+01
-1.050000000000000000e+02,6.497903023038988124e+01,1.054960327385713903e+01,6.703277838003434397e+01,1.173643639942029715e+01
-1.049000000000000057e+02,6.498140609926285549e+01,1.054790286927503651e+01,6.703035813368879303e+01,1.172577142964844832e+01
-1.047999999999999972e+02,6.498390388615290192e+01,1.054608088108233765e+01,6.702662169842072615e+01,1.171310921590099596e+01
-1.047000000000000028e+02,6.498646686448785204e+01,1.054416626254668721e+01,6.702142487725325282e+01,1.169832277698574252e+01
-1.045999999999999943e+02,6.498903956790749703e+01,1.054219642537241874e+01,6.701484264513547373e+01,1.168163641079243398e+01
-1.045000000000000000e+02,6.499155568267043748e+01,1.054022382077737952e+01,6.700713750196227636e+01,1.166356044072655607e+01
-1.044000000000000057e+02,6.499395633680981632e+01,1.053831421501464227e+01,6.699871097223663696e+01,1.164485051662469139e+01
