Time (s),Mean HR (bpm),SD HR (bpm)
-1.200000000000000000e+02,6.649613376308978729e+01,1.133575718444248004e+01
-1.199000000000000057e+02,6.649347407502965268e+01,1.132995791665881669e+01
-1.197999999999999972e+02,6.649166094785792325e+01,1.132622747200258750e+01
-1.197000000000000028e+02,6.649077858318497647e+01,1.132449299764943618e+01
-1.195999999999999943e+02,6.649090031882263929e+01,1.132467452789171602e+01
-1.195000000000000000e+02,6.649208164708481661e+01,1.132669961858244712e+01
-1.194000000000000057e+02,6.649435663462382706e+01,1.133051678077744739e+01
-1.192999999999999972e+02,6.649772942902656325e+01,1.133606530039342886e+01
-1.192000000000000028e+02,6.650211369336403777e+01,1.134319059442542077e+01
-1.190999999999999943e+02,6.650731285054425257e+01,1.135162477097035350e+01
-1.190000000000000000e+02,6.651310542779667401e+01,1.136106069764790760e+01
-1.189000000000000057e+02,6.651928740177021382e+01,1.137118803655204324e+01
-1.187999999999999972e+02,6.652567423264478919e+01,1.138173328395697759e+01
-1.187000000000000028e+02,6.653210535491361100e+01,1.139253718898525314e+01
-1.185999999999999943e+02,6.653844882645059045e+01,1.140355857353681834e+01
-1.185000000000000000e+02,6.654463696057891298e+01,1.141481977112848867e+01
-1.184000000000000057e+02,6.655067065546874971e+01,1.142636373253079540e+01
-1.182999999999999972e+02,6.655666412991627112e+01,1.143840014964325746e+01
-1.182000000000000028e+02,6.656287254229128791e+01,1.145141331239804394e+01
-1.180999999999999943e+02,6.656957745105447088e+01,1.146595337905577594e+01
-1.180000000000000000e+02,6.657696635833750065e+01,1.148241191639472625e+01
-1.179000000000000057e+02,6.658509088861187308e+01,1.150094609505807774e+01
-1.177999999999999972e+02,6.659392025320512687e+01,1.152157376453492788e+01
-1.177000000000000028e+02,6.660339451998095228e+01,1.154427717472139037e+01
-1.175999999999999943e+02,6.661349216222457414e+01,1.156905111297200506e+01
-1.175000000000000000e+02,6.662424945264056930e+01,1.159591857513859203e+01
-1.174000000000000057e+02,6.663565045084185101e+01,1.162486699670916934e+01
-1.172999999999999972e+02,6.664762408155517903e+01,1.165584492540576633e+01
-1.172000000000000028e+02,6.666007359219204886e+01,1.168874189115721762e+01
-1.170999999999999943e+02,6.667283622606994697e+01,1.172329850042984489e+01
-1.170000000000000000e+02,6.668571003219118154e+01,1.175911714598782076e+01
-1.169000000000000057e+02,6.669851880177493797e+01,1.179575580489816211e+01
-1.167999999999999972e+02,6.671111871617398492e+01,1.183276772395448972e+01
-1.167000000000000028e+02,6.672336299695631112e+01,1.186969730978047544e+01
-1.165999999999999943e+02,6.673511609893874663e+01,1.190616379267097891e+01
-1.165000000000000000e+02,6.674629362400180810e+01,1.194193806189232099e+01
-1.164000000000000057e+02,6.675685237945924655e+01,1.197684949322228398e+01
-1.162999999999999972e+02,6.676679426541494422e+01,1.201077481240012546e+01
-1.162000000000000028e+02,6.677623527150905147e+01,1.204383205952608904e+01
-1.160999999999999943e+02,6.678542120866079301e+01,1.207644049259455166e+01
-1.160000000000000000e+02,6.679464170501451292e+01,1.210914373832240010e+01
-1.159000000000000057e+02,6.680412644205347306e+01,1.214236903165663506e+01
-1.157999999999999972e+02,6.681400446181737607e+01,1.217630020628238618e+01
-1.157000000000000028e+02,6.682435038351532341e+01,1.221098982607289152e+01
-1.155999999999999943e+02,6.683516739928606398e+01,1.224635879642574388e+01
-1.155000000000000000e+02,6.684633340424578307e+01,1.228208601934098354e+01
-1.154000000000000057e+02,6.685764614127221250e+01,1.231773013039347120e+01
-1.152999999999999972e+02,6.686886838588182513e+01,1.235285241416035262e+01
-1.152000000000000028e+02,6.687975191616294524e+01,1.238702030116449393e+01
-1.150999999999999943e+02,6.689006541375007941e+01,1.241980076067815730e+01
-1.150000000000000000e+02,6.689959633868967614e+01,1.245075714314011073e+01
-1.149000000000000057e+02,6.690814418779523010e+01,1.247946155830993042e+01
-1.147999999999999972e+02,6.691554606389172477e+01,1.250557559258607832e+01
-1.147000000000000028e+02,6.692172600563735330e+01,1.252893552590921544e+01
-1.145999999999999943e+02,6.692667940811442406e+01,1.254949471419276108e+01
-1.145000000000000000e+02,6.693041409052334245e+01,1.256723155700141881e+01
-1.144000000000000057e+02,6.693294353993020707e+01,1.258215500927265040e+01
-1.142999999999999972e+02,6.693431111901163888e+01,1.259433536849970814e+01
-1.142000000000000028e+02,6.693466119097284661e+01,1.260402536618337521e+01
-1.140999999999999943e+02,6.693429555505740325e+01,1.261177210017022254e+01
-1.140000000000000000e+02,6.693359182231048976e+01,1.261827556342141321e+01
-1.139000000000000057e+02,6.693290552318458708e+01,1.262424205686589396e+01
-1.137999999999999972e+02,6.693253984953405222e+01,1.263034774734405374e+01
-1.137000000000000028e+02,6.693270182668254620e+01,1.263707224647748539e+01
-1.135999999999999943e+02,6.693348709622790693e+01,1.264457628269989620e+01
-1.135000000000000000e+02,6.693494810241560344e+01,1.265283236428342661e+01
-1.134000000000000057e+02,6.693712728354300623e+01,1.266174715074400758e+01
-1.132999999999999972e+02,6.694003852478248007e+01,1.267117327426645268e+01
-1.132000000000000028e+02,6.694363242859215291e+01,1.268084060796214096e+01
-1.130999999999999943e+02,6.694777887623494905e+01,1.269030624076924063e+01
-1.130000000000000000e+02,6.695233381967342723e+01,1.269906559806021384e+01
-1.129000000000000057e+02,6.695720440065808532e+01,1.270674287183163464e+01
-1.127999999999999972e+02,6.696234355765602686e+01,1.271318449428079944e+01
-1.127000000000000028e+02,6.696771893179283097e+01,1.271835243563206497e+01
-1.125999999999999943e+02,6.697330579941188944e+01,1.272225517971601860e+01
-1.125000000000000000e+02,6.697909674463380725e+01,1.272498194491210199e+01
-1.124000000000000057e+02,6.698510276283953147e+01,1.272667444305259998e+01
-1.122999999999999972e+02,6.699134118820613537e+01,1.272747439785493917e+01
-1.122000000000000028e+02,6.699779657763555463e+01,1.272749686569363980e+01
-1.120999999999999943e+02,6.700439892579905177e+01,1.272683036084571029e+01
-1.120000000000000000e+02,6.701099320122490610e+01,1.272537756248773277e+01
-1.119000000000000057e+02,6.701735278658522077e+01,1.272276884889834569e+01
-1.117999999999999972e+02,6.702330381121976188e+01,1.271860573988501386e+01
-1.117000000000000028e+02,6.702883666937266582e+01,1.271278510585087673e+01
-1.115999999999999943e+02,6.703407481254548372e+01,1.270555873880064013e+01
-1.115000000000000000e+02,6.703903607566820710e+01,1.269704368890107915e+01
-1.114000000000000057e+02,6.704356497805662229e+01,1.268700212449051534e+01
-1.112999999999999972e+02,6.704751970091034252e+01,1.267516845427819838e+01
-1.112000000000000028e+02,6.705081294487234800e+01,1.266136186602537705e+01
-1.110999999999999943e+02,6.705336201138447905e+01,1.264542660814753283e+01
-1.110000000000000000e+02,6.705507896119968336e+01,1.262721497319561337e+01
-1.109000000000000057e+02,6.705585192536882744e+01,1.260657538413744128e+01
-1.107999999999999972e+02,6.705550431745074036e+01,1.258332463015624647e+01
-1.107000000000000028e+02,6.705396717997263067e+01,1.255771552615421349e+01
-1.105999999999999943e+02,6.705138881555643593e+01,1.253061039433748114e+01
-1.105000000000000000e+02,6.704787625250337157e+01,1.250267352529230713e+01
-1.104000000000000057e+02,6.704345024032515710e+01,1.247420944694972711e+01
-1.102999999999999972e+02,6.703815805026800945e+01,1.244550412525527960e+01
-1.102000000000000028e+02,6.703205979528398473e+01,1.241683483091017948e+01
-1.100999999999999943e+02,6.702526117252426729e+01,1.238852597215595708e+01
-1.100000000000000000e+02,6.701793525656755435e+01,1.236098952987406641e+01
-1.099000000000000057e+02,6.701027544051427753e+01,1.233465074099728298e+01
-1.097999999999999972e+02,6.700247272591575154e+01,1.230989723823724624e+01
-1.097000000000000028e+02,6.699467916254154431e+01,1.228699578973147943e+01
-1.095999999999999943e+02,6.698694174845338978e+01,1.226599190834498643e+01
-1.095000000000000000e+02,6.697922042650655783e+01,1.224677333282413194e+01
-1.094000000000000057e+02,6.697140788212307427e+01,1.222907952405325815e+01
-1.092999999999999972e+02,6.696332974060440790e+01,1.221248411296157066e+01
-1.092000000000000028e+02,6.695480270283211155e+01,1.219654207147435443e+01
-1.090999999999999943e+02,6.694567053444328053e+01,1.218087243241647677e+01
-1.090000000000000000e+02,6.693585353576703767e+01,1.216522871289945407e+01
-1.089000000000000057e+02,6.692540120454424368e+01,1.214956758487639021e+01
-1.087999999999999972e+02,6.691442168158702941e+01,1.213392013509626466e+01
-1.087000000000000028e+02,6.690300536078640903e+01,1.211826335166502311e+01
-1.085999999999999943e+02,6.689122866980592619e+01,1.210250699608092795e+01
-1.085000000000000000e+02,6.687916472548138813e+01,1.208650904278451499e+01
-1.084000000000000057e+02,6.686686965878909916e+01,1.207013924602275878e+01
-1.082999999999999972e+02,6.685438387761261936e+01,1.205336027594339399e+01
-1.082000000000000028e+02,6.684175691626444404e+01,1.203620019162799792e+01
-1.080999999999999943e+02,6.682906079045227443e+01,1.201869427143890157e+01
-1.080000000000000000e+02,6.681637396633681192e+01,1.200087152492277909e+01
-1.079000000000000057e+02,6.680374688276565109e+01,1.198274487295130442e+01
-1.077999999999999972e+02,6.679119963393569037e+01,1.196432027117192831e+01
-1.077000000000000028e+02,6.677874606789339396e+01,1.194561424992219223e+01
-1.075999999999999943e+02,6.676640048497456803e+01,1.192665816038775262e+01
-1.075000000000000000e+02,6.675416883758342124e+01,1.190748562414614931e+01
-1.074000000000000057e+02,6.674203291042435637e+01,1.188811614061831357e+01
-1.072999999999999972e+02,6.672995095437957502e+01,1.186858365386738789e+01
-1.072000000000000028e+02,6.671785363594983664e+01,1.184890938844683994e+01
-1.070999999999999943e+02,6.670562791505659561e+01,1.182900330395396793e+01
-1.070000000000000000e+02,6.669316771843939762e+01,1.180871975181740474e+01
-1.069000000000000057e+02,6.668043957408370659e+01,1.178795028311649595e+01
-1.067999999999999972e+02,6.666747611066283241e+01,1.176659841593218481e+01
-1.067000000000000028e+02,6.665433745047585035e+01,1.174455865136012456e+01
-1.065999999999999943e+02,6.664114115159085827e+01,1.172187218962151967e+01
-1.065000000000000000e+02,6.662812156330183200e+01,1.169887862777478738e+01
-1.064000000000000057e+02,6.661558106029441717e+01,1.167609841556295791e+01
-1.062999999999999972e+02,6.660381438257671505e+01,1.165409518685453527e+01
-1.062000000000000028e+02,6.659306317034982214e+01,1.163333063272291668e+01
-1.060999999999999943e+02,6.658349199545889974e+01,1.161405564577490424e+01
-1.060000000000000000e+02,6.657522902924948482e+01,1.159642746993368867e+01
-1.059000000000000057e+02,6.656838636197650771e+01,1.158061892708603580e+01
-1.057999999999999972e+02,6.656302672233087492e+01,1.156680068719703414e+01
-1.057000000000000028e+02,6.655912958871205376e+01,1.155506002288141332e+01
-1.055999999999999943e+02,6.655657234239565412e+01,1.154530530584358772e+01
-1.055000000000000000e+02,6.655513799947756581e+01,1.153722550296756744e+01
-1.054000000000000057e+02,6.655451424110832193e+01,1.153030836076752763e+01
-1.052999999999999972e+02,6.655434176482546604e+01,1.152395839586804804e+01
-1.052000000000000028e+02,6.655431209292247274e+01,1.151764773889826721e+01
-1.050999999999999943e+02,6.655415182002670349e+01,1.151091971222504462e+01
-1.050000000000000000e+02,6.655357047845063789e+01,1.150334078101237978e+01
-1.049000000000000057e+02,6.655226932565607001e+01,1.149448216561691716e+01
-1.047999999999999972e+02,6.654998754222489765e+01,1.148399111095383773e+01
-1.047000000000000028e+02,6.654660134094132218e+01,1.147177280045394276e+01
-1.045999999999999943e+02,6.654215526044895057e+01,1.145801605358088970e+01
-1.045000000000000000e+02,6.653683507746085013e+01,1.144314271558111429e+01
-1.044000000000000057e+02,6.653093489063704169e+01,1.142777292589899751e+01
-1.042999999999999972e+02,6.652476174171383150e+01,1.141256337856984970e+01
-1.042000000000000028e+02,6.651857311529541050e+01,1.139806776672757671e+01
-1.040999999999999943e+02,6.651257112716081110e+01,1.138469249647423176e+01
-1.040000000000000000e+02,6.650684113432784272e+01,1.137259869821928326e+01
-1.039000000000000057e+02,6.650128146213936020e+01,1.136161469224618870e+01
-1.037999999999999972e+02,6.649567957310823374e+01,1.135139353166756671e+01
-1.037000000000000028e+02,6.648984457929627467e+01,1.134162506733770925e+01
-1.035999999999999943e+02,6.648367166243237136e+01,1.133209304841591525e+01
-1.035000000000000000e+02,6.647713948483517754e+01,1.132265153708630656e+01
-1.034000000000000057e+02,6.647026956942175957e+01,1.131317837144311866e+01
-1.032999999999999972e+02,6.646309789307517235e+01,1.130354912060878370e+01
-1.032000000000000028e+02,6.645565627604166536e+01,1.129362949239047964e+01
-1.030999999999999943e+02,6.644796231189592106e+01,1.128327447620844914e+01
-1.030000000000000000e+02,6.643998894131821942e+01,1.127229091030926256e+01
-1.029000000000000057e+02,6.643163432796598045e+01,1.126038896099202624e+01
-1.027999999999999972e+02,6.642274275636867742e+01,1.124721587284816060e+01
-1.027000000000000028e+02,6.641313601256393895e+01,1.123241862037192718e+01
-1.025999999999999943e+02,6.640264747300223291e+01,1.121571348648609501e+01
-1.025000000000000000e+02,6.639113914603272804e+01,1.119693908565711915e+01
-1.024000000000000057e+02,6.637847540981029226e+01,1.117599199311494473e+01
-1.022999999999999972e+02,6.636456374723084650e+01,1.115291406510932148e+01
-1.022000000000000028e+02,6.634940926721687049e+01,1.112802050756589622e+01
-1.020999999999999943e+02,6.633305244782494015e+01,1.110171822871379810e+01
-1.020000000000000000e+02,6.631551380665577256e+01,1.107434169833500270e+01
-1.019000000000000057e+02,6.629679630808911384e+01,1.104612515577938936e+01
-1.017999999999999972e+02,6.627693085685204721e+01,1.101725748711939268e+01
-1.017000000000000028e+02,6.625614164053695276e+01,1.098815867187552087e+01
-1.015999999999999943e+02,6.623492568044920858e+01,1.095962869402333517e+01
-1.015000000000000000e+02,6.621390202291718197e+01,1.093263828067854782e+01
-1.014000000000000057e+02,6.619373287134061457e+01,1.090820476536114647e+01
-1.012999999999999972e+02,6.617511312302805493e+01,1.088734480304582064e+01
-1.012000000000000028e+02,6.615851196984999660e+01,1.087066346995430699e+01
-1.010999999999999943e+02,6.614399076809768019e+01,1.085809033086139941e+01
-1.010000000000000000e+02,6.613142125347948763e+01,1.084923936979858894e+01
-1.009000000000000057e+02,6.612066825974855533e+01,1.084371462671811237e+01
-1.007999999999999972e+02,6.611157411533518768e+01,1.084111275448292133e+01
-1.007000000000000028e+02,6.610392052952431641e+01,1.084098490858907837e+01
-1.005999999999999943e+02,6.609741034676565619e+01,1.084280636474110970e+01
-1.005000000000000000e+02,6.609171506210441294e+01,1.084598038732174530e+01
-1.004000000000000057e+02,6.608652356827923313e+01,1.084984697587204039e+01
-1.002999999999999972e+02,6.608153187376363746e+01,1.085371519335154211e+01
-1.002000000000000028e+02,6.607648762647899332e+01,1.085700971028577833e+01
-1.000999999999999943e+02,6.607130757729916581e+01,1.085946775482270255e+01
-1.000000000000000000e+02,6.606607775997967735e+01,1.086110026858967004e+01
-9.990000000000000568e+01,6.606092998915977432e+01,1.086202310731873588e+01
-9.979999999999999716e+01,6.605596468923974385e+01,1.086240855214865064e+01
-9.970000000000000284e+01,6.605125952114710230e+01,1.086246356515246880e+01
-9.959999999999999432e+01,6.604686423485419766e+01,1.086234741694369532e+01
-9.950000000000000000e+01,6.604273950325827514e+01,1.086204714163734053e+01
-9.940000000000000568e+01,6.603874725812544000e+01,1.086136413181803206e+01
-9.929999999999999716e+01,6.603471465701736065e+01,1.086003262144434167e+01
-9.920000000000000284e+01,6.603047360532440280e+01,1.085778629939983020e+01
-9.909999999999999432e+01,6.602588113850440266e+01,1.085437939568025989e+01
-9.900000000000000000e+01,6.602084730993868789e+01,1.084962599259170446e+01
-9.890000000000000568e+01,6.601532379391881022e+01,1.084338917575164274e+01
-9.879999999999999716e+01,6.600930101729731803e+01,1.083558109521950286e+01
-9.870000000000000284e+01,6.600284528431211584e+01,1.082620897636891932e+01
-9.859999999999999432e+01,6.599607421105189076e+01,1.081532880378663641e+01
-9.850000000000000000e+01,6.598909624121310458e+01,1.080299737964859119e+01
-9.840000000000000568e+01,6.598197840298375638e+01,1.078927513084066092e+01
-9.829999999999999716e+01,6.597472934647962006e+01,1.077420687047666625e+01
-9.820000000000000284e+01,6.596738823035171606e+01,1.075799057886582588e+01
-9.809999999999999432e+01,6.596013791997735609e+01,1.074114882597770304e+01
-9.800000000000000000e+01,6.595324709576988198e+01,1.072435480735567026e+01
-9.790000000000000568e+01,6.594698246054697677e+01,1.070827563333779686e+01
-9.779999999999999716e+01,6.594160112243255867e+01,1.069359551570403433e+01
-9.770000000000000284e+01,6.593727483780757836e+01,1.068085916603931196e+01
-9.759999999999999432e+01,6.593401381018809104e+01,1.067028424046440449e+01
-9.750000000000000000e+01,6.593176218088305518e+01,1.066189257398415968e+01
-9.740000000000000568e+01,6.593049673597823812e+01,1.065568396313334532e+01
-9.729999999999999716e+01,6.593022020126416294e+01,1.065167945638707891e+01
-9.720000000000000284e+01,6.593094335448843424e+01,1.064993252193852236e+01
-9.709999999999999432e+01,6.593267005043509243e+01,1.065050771495794990e+01
-9.700000000000000000e+01,6.593538582469371079e+01,1.065346622588688774e+01
-9.690000000000000568e+01,6.593905975279132292e+01,1.065886818423876292e+01
-9.679999999999999716e+01,6.594365575876179264e+01,1.066678108629429289e+01
-9.670000000000000284e+01,6.594914331285202991e+01,1.067728158816444761e+01
-9.659999999999999432e+01,6.595549136094891196e+01,1.069043536665819616e+01
-9.650000000000000000e+01,6.596264576516927036e+01,1.070628038243388147e+01
-9.640000000000000568e+01,6.597052693533179024e+01,1.072483795364475689e+01
-9.629999999999999716e+01,6.597906796846191924e+01,1.074610010071075372e+01
-9.620000000000000284e+01,6.598826679828972885e+01,1.076997318963197081e+01
-9.609999999999999432e+01,6.599813655569231230e+01,1.079618771226941831e+01
-9.600000000000000000e+01,6.600860612386061632e+01,1.082427108172956842e+01
-9.590000000000000568e+01,6.601954362493599149e+01,1.085365612741686370e+01
-9.579999999999999716e+01,6.603079516553945894e+01,1.088375272353863643e+01
-9.570000000000000284e+01,6.604214558324824225e+01,1.091394232367053974e+01
-9.559999999999999432e+01,6.605329895272448937e+01,1.094358322994266608e+01
-9.550000000000000000e+01,6.606396107573070253e+01,1.097206636422410497e+01
-9.540000000000000568e+01,6.607391525633146045e+01,1.099887988422269558e+01
-9.529999999999999716e+01,6.608298578572181725e+01,1.102360765252847763e+01
-9.520000000000000284e+01,6.609098885292938519e+01,1.104592092633756018e+01
-9.509999999999999432e+01,6.609781350282496248e+01,1.106567401268246975e+01
-9.500000000000000000e+01,6.610355519771468380e+01,1.108302492852341103e+01
-9.490000000000000568e+01,6.610846862809208346e+01,1.109834586669506962e+01
-9.479999999999999716e+01,6.611285255457917742e+01,1.111205941246501006e+01
-9.470000000000000284e+01,6.611702908410758539e+01,1.112462393886660728e+01
-9.459999999999999432e+01,6.612132486507115914e+01,1.113653948724250675e+01
-9.450000000000000000e+01,6.612601045061089167e+01,1.114824138452522995e+01
-9.440000000000000568e+01,6.613128466840016983e+01,1.116003883466260760e+01
-9.429999999999999716e+01,6.613731164110498639e+01,1.117220234381083976e+01
-9.420000000000000284e+01,6.614423098975197490e+01,1.118501849264166026e+01
-9.409999999999999432e+01,6.615212876727041191e+01,1.119867849736947818e+01
-9.400000000000000000e+01,6.616096154877591573e+01,1.121310475036459842e+01
-9.390000000000000568e+01,6.617051762249073477e+01,1.122795204180755491e+01
